### Contains exact ground state energies for H_2 molecule. First column is bond length, second is energy

0.3 -0.6018037107656857
0.31 -0.6458357415434062
0.32 -0.6862795104353605
0.33 -0.7234729786886129
0.34 -0.7577147158832309
0.35 -0.7892693924044143
0.36 -0.8183723740907125
0.37 -0.8452335886335343
0.38 -0.8700407973261428
0.39 -0.8929623781271656
0.4 -0.9141497046270843
0.41 -0.9337391888604558
0.42 -0.9518540428630697
0.43 -0.9686058035926723
0.44 -0.9840956576839244
0.45 -0.9984155960160175
0.46 -1.0116494228720427
0.47 -1.0238736402861794
0.48 -1.0351582247914952
0.49 -1.0455673110333195
0.5 -1.055159794470625
0.51 -1.0639898635485878
0.52 -1.072107470210788
0.53 -1.0795587463646923
0.54 -1.086386372869867
0.55 -1.0926299067451062
0.56 -1.0983260715554028
0.57 -1.1035090153172284
0.58 -1.1082105397311033
0.59 -1.1124603040961543
0.6 -1.1162860068695404
0.61 -1.1197135474938045
0.62 -1.1227671708179052
0.63 -1.125469596176865
0.64 -1.1278421329637447
0.65 -1.129904784322914
0.66 -1.131676340410248
0.67 -1.1331744625019833
0.68 -1.1344157590862745
0.69 -1.135415854939085
0.7 -1.1361894540659225
0.71 -1.136750397283203
0.72 -1.1371117151154644
0.73 -1.1372856765971084
0.74 -1.1372838344885021
0.75 -1.137117067345731
0.76 -1.1367956188204549
0.77 -1.1363291345101947
0.78 -1.1357266966302222
0.79 -1.1349968567347246
0.8 -1.134147666677096
0.81 -1.1331867079665368
0.82 -1.132121119649999
0.83 -1.1309576248253252
0.84 -1.1297025558704243
0.85 -1.1283618784581106
0.86 -1.126941214412047
0.87 -1.1254458634489712
0.88 -1.12388082384415
0.89 -1.1222508120508188
0.9 -1.1205602812999884
0.91 -1.118813439204268
0.92 -1.1170142643875662
0.93 -1.11516652216188
0.94 -1.113273779272859
0.95 -1.1113394177361497
0.96 -1.1093666477880977
0.97 -1.1073585199755278
0.98 -1.1053179364114252
0.99 -1.1032476612245001
1.0 -1.1011503302326195
1.01 -1.099028459871535
1.02 -1.0968844554116517
1.03 -1.0947206184967793
1.04 -1.0925391540401934
1.05 -1.0903421765127632
1.06 -1.0881317156598558
1.07 -1.085909721682727
1.08 -1.0836780699206483
1.09 -1.0814385650690592
1.1 -1.0791929449690747
1.11 -1.0769428840023643
1.12 -1.0746899961245715
1.13 -1.0724358375693206
1.14 -1.0701819092534717
1.15 -1.0679296589128593
1.16 -1.0656804829962414
1.17 -1.0634357283435236
1.18 -1.0611966936728123
1.19 -1.0589646308990266
1.2 -1.056740746305258
1.21 -1.054526201586371
1.22 -1.0523221147826762
1.23 -1.0501295611199792
1.24 -1.047949573770767
1.25 -1.0457831445498011
1.26 -1.0436312245560424
1.27 -1.041494724771481
1.28 -1.0393745166262496
1.29 -1.0372714325382197
1.3 -1.035186266434255
1.31 -1.0331197742593088
1.32 -1.0310726744786842
1.33 -1.029045648577734
1.34 -1.027039341563174
1.35 -1.0250543624687884
1.36 -1.0230912848680698
1.37 -1.0211506473960332
1.38 -1.019232954281587
1.39 -1.0173386758917071
1.4 -1.0154682492882452
1.41 -1.013622078797931
1.42 -1.0118005365958733
1.43 -1.010003963302642
1.44 -1.0082326685948688
1.45 -1.0064869318291225
1.46 -1.004767002678702
1.47 -1.0030731017829186
1.48 -1.00140542140833
1.49 -0.9997641261213248
1.5 -0.9981493534714099
1.51 -0.9965612146845115
1.52 -0.9949997953655102
1.53 -0.9934651562094206
1.54 -0.9919573337202128
1.55 -0.9904763409366258
1.56 -0.9890221681641085
1.57 -0.9875947837120684
1.58 -0.9861941346356116
1.59 -0.9848201474808991
1.6 -0.9834727290331732
1.61 -0.9821517670667529
1.62 -0.9808571310959652
1.63 -0.9795886731261829
1.64 -0.9783462284040639
1.65 -0.9771296161660871
1.66 -0.9759386403844545
1.67 -0.9747730905094947
1.68 -0.9736327422075991
1.69 -0.9725173580938391
1.7 -0.9714266884583405
1.71 -0.9703604719855032
1.72 -0.9693184364651972
1.73 -0.9683002994951055
1.74 -0.9673057691733091
1.75 -0.9663345447803094
1.76 -0.9653863174496992
1.77 -0.9644607708266899
1.78 -0.963557581713767
1.79 -0.962676420702742
1.8 -0.9618169527925812
1.81 -0.9609788379923183
1.82 -0.9601617319085155
1.83 -0.9593652863167003
1.84 -0.9585891497162963
1.85 -0.957832967868579
1.86 -0.9570963843173439
1.87 -0.9563790408918068
1.88 -0.9556805781915433
1.89 -0.9550006360532033
1.9 -0.9543388539987278
1.91 -0.9536948716651354
1.92 -0.9530683292155393
1.93 -0.9524588677315093
1.94 -0.9518661295867381
1.95 -0.9512897588020882
1.96 -0.9507294013821042
1.97 -0.9501847056331403
1.98 -0.9496553224633009
1.99 -0.9491409056643919
2.0 -0.9486411121761864
2.01 -0.948155602333259
2.02 -0.9476840400947564
2.03 -0.9472260932574239
2.04 -0.9467814336523228
2.05 -0.9463497373256127
2.06 -0.9459306847038376
2.07 -0.9455239607441582
2.08 -0.9451292550700428
2.09 -0.9447462620928349
2.1 -0.9443746811197424
2.11 -0.9440142164487292
2.12 -0.9436645774508124
2.13 -0.9433254786403016
2.14 -0.9429966397334844
2.15 -0.9426777856962743
2.16 -0.9423686467813528
2.17 -0.9420689585553064
2.18 -0.9417784619162844
2.19 -0.9414969031026674
2.2 -0.9412240336932627
2.21 -0.9409596105994985
2.22 -0.940703396050122
2.23 -0.9404551575688458
2.24 -0.940214667945422
2.25 -0.9399817052005904
2.26 -0.9397560525453218
2.27 -0.9395374983348027
2.28 -0.9393258360175442
2.29 -0.9391208640800293
2.3 -0.9389223859872748
2.31 -0.9387302101196692
2.32 -0.9385441497064106
2.33 -0.9383640227559833
2.34 -0.9381896519838554
2.35 -0.9380208647377856
2.36 -0.9378574929210381
2.37 -0.9376993729137434
2.38 -0.9375463454926982
2.39 -0.9373982557498383
2.4 -0.9372549530096294
2.41 -0.937116290745592
2.42 -0.9369821264961803
2.43 -0.9368523217801993
2.44 -0.9367267420119304
2.45 -0.9366052564161927
2.46 -0.9364877379434259
2.47 -0.9363740631850049
2.48 -0.936264112288885
2.49 -0.9361577688757258
2.50 -0.9360549199556065
